 # Columns are: Lambda (Angstroms) and Flux (Flux * lambda) (ergs/s/cm^2)
    5.00000E+03    3.12587E-23    0.00000E+00    0.00000E+00    0.00000E+00    0.00000E+00
    5.27488E+03    6.20987E-23    0.00000E+00    0.00000E+00    0.00000E+00    0.00000E+00
    5.56488E+03    1.25621E-22    0.00000E+00    0.00000E+00    0.00000E+00    0.00000E+00
    5.87081E+03    2.52444E-22    0.00000E+00    0.00000E+00    0.00000E+00    0.00000E+00
    6.19357E+03    5.39758E-22    0.00000E+00    0.00000E+00    0.00000E+00    0.00000E+00
    6.53407E+03    1.15951E-21    0.00000E+00    0.00000E+00    0.00000E+00    0.00000E+00
    6.89329E+03    2.44395E-21    0.00000E+00    0.00000E+00    0.00000E+00    0.00000E+00
    7.27225E+03    5.06279E-21    0.00000E+00    0.00000E+00    0.00000E+00    0.00000E+00
    7.67206E+03    1.08053E-20    0.00000E+00    0.00000E+00    0.00000E+00    0.00000E+00
    8.09384E+03    2.26151E-20    0.00000E+00    0.00000E+00    0.00000E+00    0.00000E+00
    8.53881E+03    4.59128E-20    0.00000E+00    0.00000E+00    0.00000E+00    0.00000E+00
    9.00824E+03    9.22541E-20    0.00000E+00    0.00000E+00    0.00000E+00    0.00000E+00
    9.50348E+03    1.99126E-19    0.00000E+00    0.00000E+00    0.00000E+00    0.00000E+00
    1.00259E+04    3.79258E-19    0.00000E+00    0.00000E+00    0.00000E+00    0.00000E+00
    1.05771E+04    7.50761E-19    0.00000E+00    0.00000E+00    0.00000E+00    0.00000E+00
    1.11586E+04    1.52775E-18    0.00000E+00    0.00000E+00    0.00000E+00    0.00000E+00
    1.17721E+04    3.10407E-18    0.00000E+00    0.00000E+00    0.00000E+00    0.00000E+00
    1.24193E+04    5.63467E-18    0.00000E+00    0.00000E+00    0.00000E+00    0.00000E+00
    1.31020E+04    9.48069E-18    0.00000E+00    0.00000E+00    0.00000E+00    0.00000E+00
    1.38223E+04    1.71973E-17    0.00000E+00    0.00000E+00    0.00000E+00    0.00000E+00
    1.45822E+04    3.09618E-17    0.00000E+00    0.00000E+00    0.00000E+00    0.00000E+00
    1.53839E+04    5.37479E-17    0.00000E+00    0.00000E+00    0.00000E+00    0.00000E+00
    1.62297E+04    9.63153E-17    0.00000E+00    0.00000E+00    0.00000E+00    0.00000E+00
    1.71219E+04    1.53994E-16    0.00000E+00    0.00000E+00    0.00000E+00    0.00000E+00
    1.80632E+04    2.50299E-16    0.00000E+00    0.00000E+00    0.00000E+00    0.00000E+00
    1.90563E+04    4.19047E-16    0.00000E+00    0.00000E+00    0.00000E+00    0.00000E+00
    2.01039E+04    6.99993E-16    0.00000E+00    0.00000E+00    0.00000E+00    0.00000E+00
    2.12092E+04    1.09002E-15    0.00000E+00    0.00000E+00    0.00000E+00    0.00000E+00
    2.23752E+04    1.80148E-15    0.00000E+00    0.00000E+00    0.00000E+00    0.00000E+00
    2.36053E+04    2.83845E-15    0.00000E+00    0.00000E+00    0.00000E+00    0.00000E+00
    2.49030E+04    4.53379E-15    0.00000E+00    0.00000E+00    0.00000E+00    0.00000E+00
    2.62721E+04    6.42712E-15    0.00000E+00    0.00000E+00    0.00000E+00    0.00000E+00
    2.77164E+04    9.85915E-15    0.00000E+00    0.00000E+00    0.00000E+00    0.00000E+00
    2.92402E+04    1.53495E-14    0.00000E+00    0.00000E+00    0.00000E+00    0.00000E+00
    3.08477E+04    2.13870E-14    0.00000E+00    0.00000E+00    0.00000E+00    0.00000E+00
    3.25436E+04    2.82550E-14    0.00000E+00    0.00000E+00    0.00000E+00    0.00000E+00
    3.43327E+04    4.27270E-14    0.00000E+00    0.00000E+00    0.00000E+00    0.00000E+00
    3.62202E+04    5.75165E-14    0.00000E+00    0.00000E+00    0.00000E+00    0.00000E+00
    3.82115E+04    7.89839E-14    0.00000E+00    0.00000E+00    0.00000E+00    0.00000E+00
    4.03122E+04    1.10943E-13    0.00000E+00    0.00000E+00    0.00000E+00    0.00000E+00
    4.25284E+04    1.74328E-13    0.00000E+00    0.00000E+00    0.00000E+00    0.00000E+00
    4.48665E+04    2.81639E-13    0.00000E+00    0.00000E+00    0.00000E+00    0.00000E+00
    4.73331E+04    4.22703E-13    0.00000E+00    0.00000E+00    0.00000E+00    0.00000E+00
    4.99353E+04    6.89647E-13    0.00000E+00    0.00000E+00    0.00000E+00    0.00000E+00
    5.26805E+04    1.16111E-12    0.00000E+00    0.00000E+00    0.00000E+00    0.00000E+00
    5.55767E+04    1.84897E-12    0.00000E+00    0.00000E+00    0.00000E+00    0.00000E+00
    5.86321E+04    2.98115E-12    0.00000E+00    0.00000E+00    0.00000E+00    0.00000E+00
    6.18555E+04    4.64067E-12    0.00000E+00    0.00000E+00    0.00000E+00    0.00000E+00
    6.52561E+04    7.41104E-12    0.00000E+00    0.00000E+00    0.00000E+00    0.00000E+00
    6.88436E+04    1.15229E-11    0.00000E+00    0.00000E+00    0.00000E+00    0.00000E+00
    7.26284E+04    1.86690E-11    0.00000E+00    0.00000E+00    0.00000E+00    0.00000E+00
    7.66212E+04    1.92469E-11    0.00000E+00    0.00000E+00    0.00000E+00    0.00000E+00
    8.08336E+04    4.64514E-12    0.00000E+00    0.00000E+00    0.00000E+00    0.00000E+00
    8.52775E+04    5.34753E-13    0.00000E+00    0.00000E+00    0.00000E+00    0.00000E+00
    8.99658E+04    3.94028E-14    0.00000E+00    0.00000E+00    0.00000E+00    0.00000E+00
    9.49118E+04    5.51784E-15    0.00000E+00    0.00000E+00    0.00000E+00    0.00000E+00
    1.00130E+05    2.56991E-15    0.00000E+00    0.00000E+00    0.00000E+00    0.00000E+00
    1.05634E+05    7.27860E-15    0.00000E+00    0.00000E+00    0.00000E+00    0.00000E+00
    1.11442E+05    1.83134E-14    0.00000E+00    0.00000E+00    0.00000E+00    0.00000E+00
    1.17568E+05    4.24910E-14    0.00000E+00    0.00000E+00    0.00000E+00    0.00000E+00
    1.24032E+05    9.01696E-14    0.00000E+00    0.00000E+00    0.00000E+00    0.00000E+00
    1.30851E+05    2.01041E-13    0.00000E+00    0.00000E+00    0.00000E+00    0.00000E+00
    1.38044E+05    6.20395E-13    0.00000E+00    0.00000E+00    0.00000E+00    0.00000E+00
    1.45634E+05    9.30281E-13    0.00000E+00    0.00000E+00    0.00000E+00    0.00000E+00
    1.53640E+05    5.61236E-13    0.00000E+00    0.00000E+00    0.00000E+00    0.00000E+00
    1.62087E+05    4.96431E-13    0.00000E+00    0.00000E+00    0.00000E+00    0.00000E+00
    1.70998E+05    1.58404E-13    0.00000E+00    0.00000E+00    0.00000E+00    0.00000E+00
    1.80398E+05    1.22299E-13    0.00000E+00    0.00000E+00    0.00000E+00    0.00000E+00
    1.90316E+05    1.19950E-13    0.00000E+00    0.00000E+00    0.00000E+00    0.00000E+00
    2.00779E+05    1.42384E-13    0.00000E+00    0.00000E+00    0.00000E+00    0.00000E+00
    2.11817E+05    1.86016E-13    0.00000E+00    0.00000E+00    0.00000E+00    0.00000E+00
    2.23462E+05    2.37407E-13    0.00000E+00    0.00000E+00    0.00000E+00    0.00000E+00
    2.35747E+05    2.74474E-13    0.00000E+00    0.00000E+00    0.00000E+00    0.00000E+00
    2.48708E+05    3.39186E-13    0.00000E+00    0.00000E+00    0.00000E+00    0.00000E+00
    2.62381E+05    3.75610E-13    0.00000E+00    0.00000E+00    0.00000E+00    0.00000E+00
    2.76805E+05    4.15190E-13    0.00000E+00    0.00000E+00    0.00000E+00    0.00000E+00
    2.92023E+05    4.37506E-13    0.00000E+00    0.00000E+00    0.00000E+00    0.00000E+00
    3.08078E+05    4.42268E-13    0.00000E+00    0.00000E+00    0.00000E+00    0.00000E+00
    3.25015E+05    4.52834E-13    0.00000E+00    0.00000E+00    0.00000E+00    0.00000E+00
    3.42883E+05    4.64509E-13    0.00000E+00    0.00000E+00    0.00000E+00    0.00000E+00
    3.61733E+05    4.40867E-13    0.00000E+00    0.00000E+00    0.00000E+00    0.00000E+00
    3.81620E+05    3.95188E-13    0.00000E+00    0.00000E+00    0.00000E+00    0.00000E+00
    4.02600E+05    3.61184E-13    0.00000E+00    0.00000E+00    0.00000E+00    0.00000E+00
    4.24733E+05    3.38448E-13    0.00000E+00    0.00000E+00    0.00000E+00    0.00000E+00
    4.48084E+05    3.13131E-13    0.00000E+00    0.00000E+00    0.00000E+00    0.00000E+00
    4.72718E+05    2.78908E-13    0.00000E+00    0.00000E+00    0.00000E+00    0.00000E+00
    4.98706E+05    2.55349E-13    0.00000E+00    0.00000E+00    0.00000E+00    0.00000E+00
    5.26123E+05    2.18416E-13    0.00000E+00    0.00000E+00    0.00000E+00    0.00000E+00
    5.55047E+05    1.86008E-13    0.00000E+00    0.00000E+00    0.00000E+00    0.00000E+00
    5.85562E+05    1.52379E-13    0.00000E+00    0.00000E+00    0.00000E+00    0.00000E+00
    6.17754E+05    1.39615E-13    0.00000E+00    0.00000E+00    0.00000E+00    0.00000E+00
    6.51716E+05    2.33467E-13    0.00000E+00    0.00000E+00    0.00000E+00    0.00000E+00
    6.87545E+05    1.90665E-13    0.00000E+00    0.00000E+00    0.00000E+00    0.00000E+00
    7.25343E+05    1.64270E-13    0.00000E+00    0.00000E+00    0.00000E+00    0.00000E+00
    7.65220E+05    1.37749E-13    0.00000E+00    0.00000E+00    0.00000E+00    0.00000E+00
    8.07289E+05    0.00000E+00    0.00000E+00    0.00000E+00    0.00000E+00    0.00000E+00
    8.51671E+05    0.00000E+00    0.00000E+00    0.00000E+00    0.00000E+00    0.00000E+00
    8.98493E+05    0.00000E+00    0.00000E+00    0.00000E+00    0.00000E+00    0.00000E+00
    9.47888E+05    0.00000E+00    0.00000E+00    0.00000E+00    0.00000E+00    0.00000E+00
    1.00000E+06    0.00000E+00    0.00000E+00    0.00000E+00    0.00000E+00    0.00000E+00
