    # Columns are: wavelength (microns), kappa ext (cm^2 g^-1),     kappa abs (cm^2 g^-1), kappa sca (cm^2 g^-1), albedo
 # Note that the opacities are per gram of gas
   1.0000E-01   2.5516E+02   1.1212E+02   1.4305E+02   5.6060E-01
   1.0474E-01   2.5633E+02   1.1374E+02   1.4259E+02   5.5628E-01
   1.0970E-01   2.5663E+02   1.1644E+02   1.4019E+02   5.4626E-01
   1.1490E-01   2.5754E+02   1.1804E+02   1.3950E+02   5.4166E-01
   1.2034E-01   2.5870E+02   1.1932E+02   1.3938E+02   5.3877E-01
   1.2604E-01   2.5957E+02   1.2147E+02   1.3809E+02   5.3202E-01
   1.3201E-01   2.6080E+02   1.2269E+02   1.3810E+02   5.2955E-01
   1.3826E-01   2.6190E+02   1.2447E+02   1.3743E+02   5.2473E-01
   1.4481E-01   2.6428E+02   1.2168E+02   1.4260E+02   5.3957E-01
   1.5167E-01   2.6464E+02   1.2358E+02   1.4106E+02   5.3302E-01
   1.5886E-01   2.6588E+02   1.2770E+02   1.3818E+02   5.1971E-01
   1.6638E-01   2.6752E+02   1.3026E+02   1.3725E+02   5.1306E-01
   1.7426E-01   2.7189E+02   1.3038E+02   1.4151E+02   5.2047E-01
   1.8252E-01   2.7749E+02   1.2650E+02   1.5099E+02   5.4411E-01
   1.9116E-01   2.8179E+02   1.1744E+02   1.6434E+02   5.8321E-01
   2.0022E-01   2.8125E+02   1.0681E+02   1.7444E+02   6.2022E-01
   2.0970E-01   2.7609E+02   9.5340E+01   1.8075E+02   6.5468E-01
   2.1964E-01   2.6673E+02   8.1389E+01   1.8534E+02   6.9486E-01
   2.3004E-01   2.5648E+02   7.3437E+01   1.8304E+02   7.1367E-01
   2.4094E-01   2.5361E+02   7.1494E+01   1.8212E+02   7.1810E-01
   2.5235E-01   2.6363E+02   7.1809E+01   1.9182E+02   7.2761E-01
   2.6431E-01   2.7806E+02   7.0620E+01   2.0744E+02   7.4603E-01
   2.7683E-01   2.9596E+02   6.7830E+01   2.2813E+02   7.7082E-01
   2.8994E-01   3.1977E+02   6.5504E+01   2.5426E+02   7.9515E-01
   3.0368E-01   3.4754E+02   6.3448E+01   2.8410E+02   8.1744E-01
   3.1806E-01   3.7304E+02   6.1452E+01   3.1159E+02   8.3527E-01
   3.3313E-01   3.9115E+02   5.9267E+01   3.3188E+02   8.4848E-01
   3.4891E-01   4.0491E+02   5.6069E+01   3.4885E+02   8.6153E-01
   3.6544E-01   4.1876E+02   5.3292E+01   3.6547E+02   8.7274E-01
   3.8275E-01   4.3028E+02   5.1710E+01   3.7857E+02   8.7982E-01
   4.0088E-01   4.3458E+02   4.9935E+01   3.8464E+02   8.8509E-01
   4.1987E-01   4.3178E+02   4.7397E+01   3.8438E+02   8.9023E-01
   4.3976E-01   4.2556E+02   4.5103E+01   3.8046E+02   8.9401E-01
   4.6059E-01   4.1503E+02   4.2962E+01   3.7207E+02   8.9648E-01
   4.8241E-01   4.0016E+02   4.0578E+01   3.5959E+02   8.9860E-01
   5.0526E-01   3.8343E+02   3.8016E+01   3.4541E+02   9.0085E-01
   5.2920E-01   3.6802E+02   3.5940E+01   3.3208E+02   9.0234E-01
   5.5427E-01   3.5295E+02   3.4517E+01   3.1843E+02   9.0220E-01
   5.8052E-01   3.3528E+02   3.3267E+01   3.0201E+02   9.0078E-01
   6.0802E-01   3.1380E+02   3.1785E+01   2.8201E+02   8.9871E-01
   6.3683E-01   2.8951E+02   2.9936E+01   2.5958E+02   8.9660E-01
   6.6699E-01   2.6517E+02   2.7935E+01   2.3724E+02   8.9465E-01
   6.9859E-01   2.4276E+02   2.6120E+01   2.1664E+02   8.9240E-01
   7.3168E-01   2.2194E+02   2.4554E+01   1.9738E+02   8.8937E-01
   7.6634E-01   2.0193E+02   2.3149E+01   1.7878E+02   8.8536E-01
   8.0264E-01   1.8207E+02   2.1760E+01   1.6031E+02   8.8048E-01
   8.4067E-01   1.6223E+02   2.0304E+01   1.4193E+02   8.7484E-01
   8.8049E-01   1.4274E+02   1.8750E+01   1.2399E+02   8.6865E-01
   9.2220E-01   1.2439E+02   1.7137E+01   1.0725E+02   8.6223E-01
   9.6588E-01   1.0782E+02   1.5560E+01   9.2260E+01   8.5568E-01
   1.0116E+00   9.3413E+01   1.4114E+01   7.9299E+01   8.4891E-01
   1.0596E+00   8.1033E+01   1.2841E+01   6.8192E+01   8.4154E-01
   1.1098E+00   7.0400E+01   1.1742E+01   5.8658E+01   8.3321E-01
   1.1623E+00   6.1167E+01   1.0788E+01   5.0379E+01   8.2363E-01
   1.2174E+00   5.3095E+01   9.9600E+00   4.3135E+01   8.1241E-01
   1.2751E+00   4.6036E+01   9.2330E+00   3.6803E+01   7.9944E-01
   1.3355E+00   3.9867E+01   8.5997E+00   3.1267E+01   7.8429E-01
   1.3987E+00   3.4480E+01   8.0279E+00   2.6452E+01   7.6717E-01
   1.4650E+00   2.9792E+01   7.5028E+00   2.2289E+01   7.4816E-01
   1.5344E+00   2.5737E+01   7.0249E+00   1.8712E+01   7.2705E-01
   1.6071E+00   2.2244E+01   6.5807E+00   1.5663E+01   7.0416E-01
   1.6832E+00   1.9251E+01   6.1740E+00   1.3077E+01   6.7929E-01
   1.7629E+00   1.6698E+01   5.8064E+00   1.0891E+01   6.5226E-01
   1.8464E+00   1.4527E+01   5.4752E+00   9.0517E+00   6.2310E-01
   1.9339E+00   1.2687E+01   5.1749E+00   7.5118E+00   5.9210E-01
   2.0255E+00   1.1127E+01   4.8995E+00   6.2277E+00   5.5969E-01
   2.1215E+00   9.8038E+00   4.6449E+00   5.1589E+00   5.2621E-01
   2.2219E+00   8.6838E+00   4.4123E+00   4.2715E+00   4.9190E-01
   2.3272E+00   7.7328E+00   4.2002E+00   3.5326E+00   4.5684E-01
   2.4374E+00   6.9224E+00   4.0028E+00   2.9196E+00   4.2176E-01
   2.5529E+00   6.2342E+00   3.8219E+00   2.4122E+00   3.8694E-01
   2.6738E+00   5.6492E+00   3.6579E+00   1.9914E+00   3.5250E-01
   2.8005E+00   5.1501E+00   3.5074E+00   1.6427E+00   3.1896E-01
   2.9332E+00   4.7230E+00   3.3688E+00   1.3543E+00   2.8673E-01
   3.0721E+00   4.3570E+00   3.2410E+00   1.1160E+00   2.5615E-01
   3.2176E+00   4.0508E+00   3.1316E+00   9.1927E-01   2.2693E-01
   3.3701E+00   3.7834E+00   3.0267E+00   7.5669E-01   2.0000E-01
   3.5297E+00   3.5400E+00   2.9176E+00   6.2244E-01   1.7583E-01
   3.6969E+00   3.3250E+00   2.8137E+00   5.1126E-01   1.5377E-01
   3.8720E+00   3.1356E+00   2.7165E+00   4.1916E-01   1.3368E-01
   4.0555E+00   2.9690E+00   2.6260E+00   3.4305E-01   1.1554E-01
   4.2476E+00   2.8146E+00   2.5344E+00   2.8020E-01   9.9552E-02
   4.4488E+00   2.6752E+00   2.4470E+00   2.2818E-01   8.5294E-02
   4.6595E+00   2.5580E+00   2.3729E+00   1.8508E-01   7.2356E-02
   4.8803E+00   2.4599E+00   2.3103E+00   1.4955E-01   6.0794E-02
   5.1114E+00   2.3833E+00   2.2631E+00   1.2022E-01   5.0441E-02
   5.3536E+00   2.3333E+00   2.2373E+00   9.5995E-02   4.1142E-02
   5.6072E+00   2.3082E+00   2.2321E+00   7.6115E-02   3.2976E-02
   5.8728E+00   2.3097E+00   2.2499E+00   5.9796E-02   2.5889E-02
   6.1510E+00   2.3335E+00   2.2872E+00   4.6332E-02   1.9855E-02
   6.4424E+00   2.3451E+00   2.3099E+00   3.5257E-02   1.5034E-02
   6.7475E+00   2.3334E+00   2.3075E+00   2.5917E-02   1.1107E-02
   7.0672E+00   2.3407E+00   2.3228E+00   1.7811E-02   7.6095E-03
   7.4020E+00   2.6705E+00   2.6600E+00   1.0559E-02   3.9541E-03
   7.7526E+00   4.5095E+00   4.5043E+00   5.1872E-03   1.1503E-03
   8.1198E+00   9.2793E+00   9.2746E+00   4.7022E-03   5.0674E-04
   8.5045E+00   1.5365E+01   1.5356E+01   9.3103E-03   6.0593E-04
   8.9074E+00   2.1820E+01   2.1804E+01   1.6306E-02   7.4731E-04
   9.3293E+00   2.9045E+01   2.9016E+01   2.8843E-02   9.9305E-04
   9.7712E+00   2.8173E+01   2.8141E+01   3.2047E-02   1.1375E-03
   1.0234E+01   2.5304E+01   2.5273E+01   3.0220E-02   1.1943E-03
   1.0719E+01   2.0703E+01   2.0677E+01   2.6299E-02   1.2703E-03
   1.1227E+01   1.6639E+01   1.6618E+01   2.1022E-02   1.2634E-03
   1.1758E+01   1.3534E+01   1.3518E+01   1.6782E-02   1.2399E-03
   1.2316E+01   1.0732E+01   1.0719E+01   1.3039E-02   1.2150E-03
   1.2899E+01   8.5197E+00   8.5098E+00   9.9130E-03   1.1635E-03
   1.3510E+01   6.8800E+00   6.8727E+00   7.3031E-03   1.0615E-03
   1.4150E+01   6.0879E+00   6.0828E+00   5.1179E-03   8.4068E-04
   1.4820E+01   6.5811E+00   6.5773E+00   3.7830E-03   5.7483E-04
   1.5522E+01   7.4690E+00   7.4659E+00   3.0870E-03   4.1331E-04
   1.6258E+01   8.5366E+00   8.5339E+00   2.7487E-03   3.2198E-04
   1.7028E+01   9.5622E+00   9.5596E+00   2.6450E-03   2.7661E-04
   1.7834E+01   1.0218E+01   1.0216E+01   2.6347E-03   2.5784E-04
   1.8679E+01   1.0226E+01   1.0224E+01   2.5853E-03   2.5281E-04
   1.9564E+01   9.5590E+00   9.5566E+00   2.4042E-03   2.5151E-04
   2.0491E+01   8.5494E+00   8.5473E+00   2.1057E-03   2.4630E-04
   2.1461E+01   7.7091E+00   7.7073E+00   1.8072E-03   2.3443E-04
   2.2478E+01   6.9465E+00   6.9450E+00   1.5395E-03   2.2162E-04
   2.3543E+01   6.2775E+00   6.2762E+00   1.2978E-03   2.0673E-04
   2.4658E+01   5.6852E+00   5.6841E+00   1.0950E-03   1.9261E-04
   2.5826E+01   5.1375E+00   5.1366E+00   9.1908E-04   1.7890E-04
   2.7050E+01   4.6497E+00   4.6489E+00   7.6914E-04   1.6542E-04
   2.8331E+01   4.2135E+00   4.2128E+00   6.4444E-04   1.5295E-04
   2.9673E+01   3.8261E+00   3.8255E+00   5.3994E-04   1.4112E-04
   3.1079E+01   3.4677E+00   3.4673E+00   4.5114E-04   1.3010E-04
   3.2551E+01   3.1495E+00   3.1491E+00   3.7656E-04   1.1956E-04
   3.4093E+01   2.8669E+00   2.8666E+00   3.1405E-04   1.0954E-04
   3.5708E+01   2.6177E+00   2.6174E+00   2.6187E-04   1.0004E-04
   3.7399E+01   2.3953E+00   2.3951E+00   2.1831E-04   9.1143E-05
   3.9171E+01   2.1827E+00   2.1826E+00   1.8232E-04   8.3530E-05
   4.1027E+01   1.9863E+00   1.9861E+00   1.5237E-04   7.6711E-05
   4.2970E+01   1.8036E+00   1.8035E+00   1.2711E-04   7.0476E-05
   4.5006E+01   1.6372E+00   1.6371E+00   1.0592E-04   6.4694E-05
   4.7138E+01   1.4848E+00   1.4848E+00   8.8237E-05   5.9425E-05
   4.9370E+01   1.3470E+00   1.3469E+00   7.3474E-05   5.4548E-05
   5.1709E+01   1.2212E+00   1.2211E+00   6.1162E-05   5.0084E-05
   5.4159E+01   1.1066E+00   1.1065E+00   5.0893E-05   4.5991E-05
   5.6724E+01   1.0021E+00   1.0020E+00   4.2339E-05   4.2252E-05
   5.9411E+01   9.0728E-01   9.0724E-01   3.5210E-05   3.8808E-05
   6.2226E+01   8.2166E-01   8.2163E-01   2.9270E-05   3.5623E-05
   6.5173E+01   7.4390E-01   7.4388E-01   2.4329E-05   3.2705E-05
   6.8261E+01   6.7395E-01   6.7393E-01   2.0215E-05   2.9995E-05
   7.1494E+01   6.0997E-01   6.0995E-01   1.6800E-05   2.7542E-05
   7.4881E+01   5.5265E-01   5.5263E-01   1.3957E-05   2.5255E-05
   7.8428E+01   5.0092E-01   5.0091E-01   1.1594E-05   2.3145E-05
   8.2143E+01   4.5414E-01   4.5413E-01   9.6294E-06   2.1203E-05
   8.6035E+01   4.1169E-01   4.1168E-01   7.9990E-06   1.9430E-05
   9.0110E+01   3.7325E-01   3.7324E-01   6.6452E-06   1.7804E-05
   9.4379E+01   3.3869E-01   3.3868E-01   5.5195E-06   1.6297E-05
   9.8850E+01   3.0735E-01   3.0734E-01   4.5846E-06   1.4917E-05
   1.0353E+02   2.7913E-01   2.7913E-01   3.8072E-06   1.3639E-05
   1.0844E+02   2.5336E-01   2.5336E-01   3.1632E-06   1.2485E-05
   1.1357E+02   2.3014E-01   2.3014E-01   2.6274E-06   1.1417E-05
   1.1895E+02   2.0924E-01   2.0924E-01   2.1822E-06   1.0429E-05
   1.2459E+02   1.9028E-01   1.9028E-01   1.8124E-06   9.5250E-06
   1.3049E+02   1.7289E-01   1.7289E-01   1.5055E-06   8.7078E-06
   1.3667E+02   1.5722E-01   1.5722E-01   1.2507E-06   7.9553E-06
   1.4315E+02   1.4295E-01   1.4295E-01   1.0390E-06   7.2681E-06
   1.4993E+02   1.2995E-01   1.2995E-01   8.6316E-07   6.6422E-06
   1.5703E+02   1.1830E-01   1.1830E-01   7.1701E-07   6.0611E-06
   1.6447E+02   1.0764E-01   1.0764E-01   5.9567E-07   5.5339E-06
   1.7226E+02   9.7918E-02   9.7917E-02   4.9492E-07   5.0544E-06
   1.8042E+02   8.9172E-02   8.9171E-02   4.1113E-07   4.6105E-06
   1.8897E+02   8.1190E-02   8.1190E-02   3.4156E-07   4.2069E-06
   1.9792E+02   7.3888E-02   7.3887E-02   2.8378E-07   3.8406E-06
   2.0729E+02   6.7264E-02   6.7263E-02   2.3579E-07   3.5054E-06
   2.1711E+02   6.1268E-02   6.1268E-02   1.9593E-07   3.1978E-06
   2.2740E+02   5.5787E-02   5.5787E-02   1.6280E-07   2.9182E-06
   2.3817E+02   5.0793E-02   5.0793E-02   1.3527E-07   2.6631E-06
   2.4945E+02   4.6258E-02   4.6258E-02   1.1240E-07   2.4299E-06
   2.6127E+02   4.2134E-02   4.2134E-02   9.3392E-08   2.2166E-06
   2.7364E+02   3.8380E-02   3.8380E-02   7.7600E-08   2.0219E-06
   2.8661E+02   3.4970E-02   3.4970E-02   6.4471E-08   1.8436E-06
   3.0018E+02   3.1864E-02   3.1864E-02   5.3565E-08   1.6811E-06
   3.1440E+02   2.9025E-02   2.9025E-02   4.4512E-08   1.5336E-06
   3.2930E+02   2.6438E-02   2.6438E-02   3.6990E-08   1.3991E-06
   3.4490E+02   2.4089E-02   2.4089E-02   3.0735E-08   1.2759E-06
   3.6123E+02   2.1962E-02   2.1962E-02   2.5539E-08   1.1629E-06
   3.7835E+02   2.0006E-02   2.0006E-02   2.1222E-08   1.0607E-06
   3.9627E+02   1.8231E-02   1.8231E-02   1.7634E-08   9.6724E-07
   4.1504E+02   1.6622E-02   1.6622E-02   1.4651E-08   8.8146E-07
   4.3470E+02   1.5140E-02   1.5140E-02   1.2177E-08   8.0428E-07
   4.5529E+02   1.3804E-02   1.3804E-02   1.0117E-08   7.3290E-07
   4.7686E+02   1.2576E-02   1.2576E-02   8.4087E-09   6.6861E-07
   4.9945E+02   1.1461E-02   1.1461E-02   6.9868E-09   6.0962E-07
   5.2311E+02   1.0449E-02   1.0449E-02   5.8054E-09   5.5560E-07
   5.4789E+02   9.5250E-03   9.5250E-03   4.8238E-09   5.0643E-07
   5.7384E+02   8.6769E-03   8.6769E-03   4.0093E-09   4.6207E-07
   6.0103E+02   7.9102E-03   7.9102E-03   3.3314E-09   4.2116E-07
   6.2950E+02   7.2105E-03   7.2105E-03   2.7682E-09   3.8391E-07
   6.5932E+02   6.5730E-03   6.5730E-03   2.3002E-09   3.4995E-07
   6.9055E+02   5.9918E-03   5.9918E-03   1.9113E-09   3.1900E-07
   7.2326E+02   5.4619E-03   5.4619E-03   1.5882E-09   2.9078E-07
   7.5752E+02   4.9790E-03   4.9790E-03   1.3197E-09   2.6506E-07
   7.9341E+02   4.5388E-03   4.5388E-03   1.0966E-09   2.4162E-07
   8.3099E+02   4.1353E-03   4.1353E-03   9.1151E-10   2.2042E-07
   8.7036E+02   3.7691E-03   3.7691E-03   7.5745E-10   2.0096E-07
   9.1159E+02   3.4360E-03   3.4360E-03   6.2941E-10   1.8318E-07
   9.5477E+02   3.1321E-03   3.1321E-03   5.2302E-10   1.6699E-07
   1.0000E+03   2.8551E-03   2.8551E-03   4.3461E-10   1.5223E-07
