      # Columns are: wavelength (microns), kappa ext (cm^2 g^-1),   kappa abs (cm^2 g^-1), kappa sca (cm^2 g^-1), albedo
 # Note that the opacities are per gram of gas
   1.0000E-01   4.7263E+02   2.2610E+02   2.4652E+02   5.2160E-01
   1.0474E-01   4.7643E+02   2.2978E+02   2.4665E+02   5.1771E-01
   1.0970E-01   4.7801E+02   2.3537E+02   2.4264E+02   5.0760E-01
   1.1490E-01   4.8069E+02   2.3905E+02   2.4163E+02   5.0268E-01
   1.2034E-01   4.8468E+02   2.4243E+02   2.4225E+02   4.9981E-01
   1.2604E-01   4.8865E+02   2.4734E+02   2.4131E+02   4.9383E-01
   1.3201E-01   4.9204E+02   2.5013E+02   2.4191E+02   4.9165E-01
   1.3826E-01   4.9557E+02   2.5365E+02   2.4193E+02   4.8818E-01
   1.4481E-01   5.0013E+02   2.5036E+02   2.4977E+02   4.9941E-01
   1.5167E-01   5.0697E+02   2.5723E+02   2.4974E+02   4.9262E-01
   1.5886E-01   5.2682E+02   2.6043E+02   2.6639E+02   5.0566E-01
   1.6638E-01   5.5135E+02   2.5436E+02   2.9699E+02   5.3866E-01
   1.7426E-01   5.7182E+02   2.3732E+02   3.3450E+02   5.8497E-01
   1.8252E-01   5.8795E+02   2.1014E+02   3.7782E+02   6.4259E-01
   1.9116E-01   6.0231E+02   1.7513E+02   4.2717E+02   7.0923E-01
   2.0022E-01   6.1294E+02   1.4551E+02   4.6743E+02   7.6261E-01
   2.0970E-01   6.1707E+02   1.1980E+02   4.9727E+02   8.0586E-01
   2.1964E-01   6.1146E+02   9.5033E+01   5.1643E+02   8.4458E-01
   2.3004E-01   5.9556E+02   8.0335E+01   5.1523E+02   8.6511E-01
   2.4094E-01   5.7525E+02   7.6681E+01   4.9857E+02   8.6670E-01
   2.5235E-01   5.5594E+02   7.5181E+01   4.8076E+02   8.6477E-01
   2.6431E-01   5.3752E+02   7.1610E+01   4.6591E+02   8.6678E-01
   2.7683E-01   5.2020E+02   6.7987E+01   4.5222E+02   8.6931E-01
   2.8994E-01   5.0339E+02   6.4609E+01   4.3879E+02   8.7165E-01
   3.0368E-01   4.8651E+02   6.1168E+01   4.2534E+02   8.7427E-01
   3.1806E-01   4.6975E+02   5.7848E+01   4.1190E+02   8.7685E-01
   3.3313E-01   4.5225E+02   5.4874E+01   3.9737E+02   8.7866E-01
   3.4891E-01   4.3355E+02   5.1708E+01   3.8184E+02   8.8073E-01
   3.6544E-01   4.1476E+02   4.8695E+01   3.6606E+02   8.8259E-01
   3.8275E-01   3.9524E+02   4.6109E+01   3.4913E+02   8.8334E-01
   4.0088E-01   3.7428E+02   4.3468E+01   3.3081E+02   8.8386E-01
   4.1987E-01   3.5290E+02   4.0710E+01   3.1219E+02   8.8464E-01
   4.3976E-01   3.3222E+02   3.8285E+01   2.9394E+02   8.8476E-01
   4.6059E-01   3.1131E+02   3.6104E+01   2.7521E+02   8.8403E-01
   4.8241E-01   2.8955E+02   3.3905E+01   2.5564E+02   8.8290E-01
   5.0526E-01   2.6779E+02   3.1652E+01   2.3614E+02   8.8180E-01
   5.2920E-01   2.4735E+02   2.9590E+01   2.1776E+02   8.8037E-01
   5.5427E-01   2.2816E+02   2.7796E+01   2.0036E+02   8.7817E-01
   5.8052E-01   2.0939E+02   2.6127E+01   1.8326E+02   8.7523E-01
   6.0802E-01   1.9069E+02   2.4464E+01   1.6622E+02   8.7171E-01
   6.3683E-01   1.7231E+02   2.2771E+01   1.4954E+02   8.6785E-01
   6.6699E-01   1.5516E+02   2.1131E+01   1.3403E+02   8.6381E-01
   6.9859E-01   1.3984E+02   1.9672E+01   1.2016E+02   8.5932E-01
   7.3168E-01   1.2596E+02   1.8393E+01   1.0757E+02   8.5398E-01
   7.6634E-01   1.1313E+02   1.7248E+01   9.5883E+01   8.4754E-01
   8.0264E-01   1.0096E+02   1.6161E+01   8.4802E+01   8.3993E-01
   8.4067E-01   8.9349E+01   1.5093E+01   7.4256E+01   8.3108E-01
   8.8049E-01   7.8352E+01   1.4025E+01   6.4326E+01   8.2100E-01
   9.2220E-01   6.8241E+01   1.2966E+01   5.5275E+01   8.1000E-01
   9.6588E-01   5.9224E+01   1.1953E+01   4.7271E+01   7.9817E-01
   1.0116E+00   5.1413E+01   1.1023E+01   4.0390E+01   7.8560E-01
   1.0596E+00   4.4707E+01   1.0191E+01   3.4515E+01   7.7204E-01
   1.1098E+00   3.8955E+01   9.4557E+00   2.9499E+01   7.5726E-01
   1.1623E+00   3.3977E+01   8.7990E+00   2.5178E+01   7.4103E-01
   1.2174E+00   2.9651E+01   8.2156E+00   2.1436E+01   7.2293E-01
   1.2751E+00   2.5892E+01   7.6935E+00   1.8199E+01   7.0286E-01
   1.3355E+00   2.2630E+01   7.2336E+00   1.5397E+01   6.8036E-01
   1.3987E+00   1.9794E+01   6.8134E+00   1.2981E+01   6.5579E-01
   1.4650E+00   1.7331E+01   6.4233E+00   1.0908E+01   6.2938E-01
   1.5344E+00   1.5204E+01   6.0657E+00   9.1379E+00   6.0103E-01
   1.6071E+00   1.3366E+01   5.7299E+00   7.6365E+00   5.7132E-01
   1.6832E+00   1.1788E+01   5.4201E+00   6.3680E+00   5.4020E-01
   1.7629E+00   1.0438E+01   5.1387E+00   5.2989E+00   5.0768E-01
   1.8464E+00   9.2852E+00   4.8839E+00   4.4013E+00   4.7401E-01
   1.9339E+00   8.3025E+00   4.6513E+00   3.6512E+00   4.3977E-01
   2.0255E+00   7.4626E+00   4.4362E+00   3.0264E+00   4.0555E-01
   2.1215E+00   6.7421E+00   4.2353E+00   2.5068E+00   3.7181E-01
   2.2219E+00   6.1258E+00   4.0501E+00   2.0756E+00   3.3884E-01
   2.3272E+00   5.5968E+00   3.8801E+00   1.7167E+00   3.0673E-01
   2.4374E+00   5.1391E+00   3.7201E+00   1.4190E+00   2.7612E-01
   2.5529E+00   4.7448E+00   3.5721E+00   1.1726E+00   2.4714E-01
   2.6738E+00   4.4053E+00   3.4371E+00   9.6822E-01   2.1978E-01
   2.8005E+00   4.1111E+00   3.3123E+00   7.9884E-01   1.9431E-01
   2.9332E+00   3.8550E+00   3.1963E+00   6.5873E-01   1.7088E-01
   3.0721E+00   3.6314E+00   3.0884E+00   5.4298E-01   1.4952E-01
   3.2176E+00   3.4436E+00   2.9963E+00   4.4735E-01   1.2991E-01
   3.3701E+00   3.2752E+00   2.9069E+00   3.6831E-01   1.1245E-01
   3.5297E+00   3.1149E+00   2.8118E+00   3.0303E-01   9.7284E-02
   3.6969E+00   2.9694E+00   2.7205E+00   2.4895E-01   8.3837E-02
   3.8720E+00   2.8385E+00   2.6344E+00   2.0414E-01   7.1919E-02
   4.0555E+00   2.7208E+00   2.5537E+00   1.6711E-01   6.1418E-02
   4.2476E+00   2.6075E+00   2.4710E+00   1.3651E-01   5.2353E-02
   4.4488E+00   2.5027E+00   2.3915E+00   1.1119E-01   4.4426E-02
   4.6595E+00   2.4144E+00   2.3242E+00   9.0203E-02   3.7360E-02
   4.8803E+00   2.3405E+00   2.2676E+00   7.2894E-02   3.1145E-02
   5.1114E+00   2.2841E+00   2.2255E+00   5.8607E-02   2.5658E-02
   5.3536E+00   2.2508E+00   2.2040E+00   4.6805E-02   2.0794E-02
   5.6072E+00   2.2397E+00   2.2026E+00   3.7117E-02   1.6572E-02
   5.8728E+00   2.2527E+00   2.2236E+00   2.9162E-02   1.2945E-02
   6.1510E+00   2.2863E+00   2.2637E+00   2.2599E-02   9.8847E-03
   6.4424E+00   2.3064E+00   2.2892E+00   1.7199E-02   7.4571E-03
   6.7475E+00   2.3026E+00   2.2900E+00   1.2645E-02   5.4916E-03
   7.0672E+00   2.3170E+00   2.3083E+00   8.6914E-03   3.7511E-03
   7.4020E+00   2.6526E+00   2.6475E+00   5.1539E-03   1.9429E-03
   7.7526E+00   4.4938E+00   4.4913E+00   2.5325E-03   5.6356E-04
   8.1198E+00   9.2648E+00   9.2625E+00   2.2964E-03   2.4786E-04
   8.5045E+00   1.5349E+01   1.5344E+01   4.5470E-03   2.9624E-04
   8.9074E+00   2.1801E+01   2.1794E+01   7.9634E-03   3.6527E-04
   9.3293E+00   2.8981E+01   2.8967E+01   1.4080E-02   4.8584E-04
   9.7712E+00   2.8051E+01   2.8036E+01   1.5635E-02   5.5737E-04
   1.0234E+01   2.5165E+01   2.5151E+01   1.4739E-02   5.8568E-04
   1.0719E+01   2.0570E+01   2.0557E+01   1.2823E-02   6.2340E-04
   1.1227E+01   1.6529E+01   1.6519E+01   1.0250E-02   6.2014E-04
   1.1758E+01   1.3446E+01   1.3438E+01   8.1827E-03   6.0857E-04
   1.2316E+01   1.0664E+01   1.0658E+01   6.3579E-03   5.9619E-04
   1.2899E+01   8.4705E+00   8.4656E+00   4.8341E-03   5.7070E-04
   1.3510E+01   6.8452E+00   6.8417E+00   3.5617E-03   5.2032E-04
   1.4150E+01   6.0630E+00   6.0605E+00   2.4963E-03   4.1172E-04
   1.4820E+01   6.5598E+00   6.5579E+00   1.8453E-03   2.8131E-04
   1.5522E+01   7.4488E+00   7.4473E+00   1.5059E-03   2.0217E-04
   1.6258E+01   8.5165E+00   8.5151E+00   1.3409E-03   1.5745E-04
   1.7028E+01   9.5413E+00   9.5400E+00   1.2903E-03   1.3524E-04
   1.7834E+01   1.0196E+01   1.0195E+01   1.2853E-03   1.2605E-04
   1.8679E+01   1.0204E+01   1.0203E+01   1.2611E-03   1.2360E-04
   1.9564E+01   9.5375E+00   9.5363E+00   1.1728E-03   1.2297E-04
   2.0491E+01   8.5301E+00   8.5291E+00   1.0272E-03   1.2042E-04
   2.1461E+01   7.6921E+00   7.6913E+00   8.8158E-04   1.1461E-04
   2.2478E+01   6.9317E+00   6.9309E+00   7.5097E-04   1.0834E-04
   2.3543E+01   6.2647E+00   6.2641E+00   6.3308E-04   1.0105E-04
   2.4658E+01   5.6741E+00   5.6736E+00   5.3417E-04   9.4143E-05
   2.5826E+01   5.1280E+00   5.1275E+00   4.4836E-04   8.7434E-05
   2.7050E+01   4.6415E+00   4.6411E+00   3.7522E-04   8.0840E-05
   2.8331E+01   4.2065E+00   4.2062E+00   3.1439E-04   7.4739E-05
   2.9673E+01   3.8200E+00   3.8198E+00   2.6341E-04   6.8955E-05
   3.1079E+01   3.4626E+00   3.4623E+00   2.2009E-04   6.3564E-05
   3.2551E+01   3.1451E+00   3.1449E+00   1.8371E-04   5.8413E-05
   3.4093E+01   2.8632E+00   2.8630E+00   1.5322E-04   5.3513E-05
   3.5708E+01   2.6145E+00   2.6143E+00   1.2776E-04   4.8867E-05
   3.7399E+01   2.3926E+00   2.3925E+00   1.0651E-04   4.4518E-05
   3.9171E+01   2.1804E+00   2.1803E+00   8.8953E-05   4.0797E-05
   4.1027E+01   1.9843E+00   1.9842E+00   7.4341E-05   3.7465E-05
   4.2970E+01   1.8019E+00   1.8019E+00   6.2017E-05   3.4417E-05
   4.5006E+01   1.6357E+00   1.6357E+00   5.1676E-05   3.1592E-05
   4.7138E+01   1.4836E+00   1.4836E+00   4.3051E-05   2.9018E-05
   4.9370E+01   1.3459E+00   1.3459E+00   3.5848E-05   2.6635E-05
   5.1709E+01   1.2203E+00   1.2203E+00   2.9842E-05   2.4454E-05
   5.4159E+01   1.1058E+00   1.1058E+00   2.4831E-05   2.2454E-05
   5.6724E+01   1.0014E+00   1.0014E+00   2.0658E-05   2.0628E-05
   5.9411E+01   9.0676E-01   9.0674E-01   1.7179E-05   1.8946E-05
   6.2226E+01   8.2123E-01   8.2121E-01   1.4281E-05   1.7390E-05
   6.5173E+01   7.4354E-01   7.4352E-01   1.1871E-05   1.5965E-05
   6.8261E+01   6.7365E-01   6.7364E-01   9.8634E-06   1.4642E-05
   7.1494E+01   6.0972E-01   6.0971E-01   8.1970E-06   1.3444E-05
   7.4881E+01   5.5243E-01   5.5243E-01   6.8100E-06   1.2327E-05
   7.8428E+01   5.0075E-01   5.0074E-01   5.6569E-06   1.1297E-05
   8.2143E+01   4.5400E-01   4.5399E-01   4.6984E-06   1.0349E-05
   8.6035E+01   4.1157E-01   4.1157E-01   3.9029E-06   9.4830E-06
   9.0110E+01   3.7315E-01   3.7315E-01   3.2424E-06   8.6892E-06
   9.4379E+01   3.3861E-01   3.3860E-01   2.6931E-06   7.9535E-06
   9.8850E+01   3.0728E-01   3.0728E-01   2.2370E-06   7.2800E-06
   1.0353E+02   2.7907E-01   2.7907E-01   1.8576E-06   6.6565E-06
   1.0844E+02   2.5332E-01   2.5331E-01   1.5434E-06   6.0930E-06
   1.1357E+02   2.3010E-01   2.3010E-01   1.2820E-06   5.5716E-06
   1.1895E+02   2.0921E-01   2.0921E-01   1.0648E-06   5.0896E-06
   1.2459E+02   1.9025E-01   1.9025E-01   8.8433E-07   4.6482E-06
   1.3049E+02   1.7287E-01   1.7287E-01   7.3458E-07   4.2494E-06
   1.3667E+02   1.5720E-01   1.5720E-01   6.1027E-07   3.8821E-06
   1.4315E+02   1.4293E-01   1.4293E-01   5.0694E-07   3.5467E-06
   1.4993E+02   1.2994E-01   1.2994E-01   4.2116E-07   3.2413E-06
   1.5703E+02   1.1829E-01   1.1829E-01   3.4985E-07   2.9577E-06
   1.6447E+02   1.0763E-01   1.0763E-01   2.9065E-07   2.7004E-06
   1.7226E+02   9.7910E-02   9.7910E-02   2.4149E-07   2.4664E-06
   1.8042E+02   8.9165E-02   8.9165E-02   2.0061E-07   2.2498E-06
   1.8897E+02   8.1185E-02   8.1185E-02   1.6666E-07   2.0528E-06
   1.9792E+02   7.3883E-02   7.3883E-02   1.3846E-07   1.8741E-06
   2.0729E+02   6.7260E-02   6.7260E-02   1.1505E-07   1.7105E-06
   2.1711E+02   6.1265E-02   6.1265E-02   9.5599E-08   1.5604E-06
   2.2740E+02   5.5784E-02   5.5784E-02   7.9435E-08   1.4240E-06
   2.3817E+02   5.0791E-02   5.0791E-02   6.6001E-08   1.2995E-06
   2.4945E+02   4.6256E-02   4.6256E-02   5.4846E-08   1.1857E-06
   2.6127E+02   4.2132E-02   4.2132E-02   4.5570E-08   1.0816E-06
   2.7364E+02   3.8379E-02   3.8379E-02   3.7864E-08   9.8658E-07
   2.8661E+02   3.4969E-02   3.4969E-02   3.1458E-08   8.9958E-07
   3.0018E+02   3.1863E-02   3.1863E-02   2.6137E-08   8.2027E-07
   3.1440E+02   2.9024E-02   2.9024E-02   2.1719E-08   7.4831E-07
   3.2930E+02   2.6437E-02   2.6437E-02   1.8049E-08   6.8269E-07
   3.4490E+02   2.4088E-02   2.4088E-02   1.4997E-08   6.2258E-07
   3.6123E+02   2.1961E-02   2.1961E-02   1.2461E-08   5.6741E-07
   3.7835E+02   2.0006E-02   2.0006E-02   1.0355E-08   5.1758E-07
   3.9627E+02   1.8231E-02   1.8231E-02   8.6042E-09   4.7196E-07
   4.1504E+02   1.6621E-02   1.6621E-02   7.1489E-09   4.3010E-07
   4.3470E+02   1.5140E-02   1.5140E-02   5.9414E-09   3.9244E-07
   4.5529E+02   1.3804E-02   1.3804E-02   4.9366E-09   3.5761E-07
   4.7686E+02   1.2576E-02   1.2576E-02   4.1029E-09   3.2624E-07
   4.9945E+02   1.1461E-02   1.1461E-02   3.4091E-09   2.9746E-07
   5.2311E+02   1.0449E-02   1.0449E-02   2.8327E-09   2.7110E-07
   5.4789E+02   9.5250E-03   9.5250E-03   2.3537E-09   2.4711E-07
   5.7384E+02   8.6768E-03   8.6768E-03   1.9563E-09   2.2546E-07
   6.0103E+02   7.9102E-03   7.9102E-03   1.6255E-09   2.0550E-07
   6.2950E+02   7.2105E-03   7.2105E-03   1.3507E-09   1.8733E-07
   6.5932E+02   6.5729E-03   6.5729E-03   1.1224E-09   1.7075E-07
   6.9055E+02   5.9917E-03   5.9917E-03   9.3262E-10   1.5565E-07
   7.2326E+02   5.4619E-03   5.4619E-03   7.7496E-10   1.4188E-07
   7.5752E+02   4.9790E-03   4.9790E-03   6.4395E-10   1.2933E-07
   7.9341E+02   4.5388E-03   4.5388E-03   5.3510E-10   1.1789E-07
   8.3099E+02   4.1353E-03   4.1353E-03   4.4476E-10   1.0755E-07
   8.7036E+02   3.7691E-03   3.7691E-03   3.6959E-10   9.8056E-08
   9.1159E+02   3.4359E-03   3.4359E-03   3.0711E-10   8.9382E-08
   9.5477E+02   3.1321E-03   3.1321E-03   2.5520E-10   8.1479E-08
   1.0000E+03   2.8551E-03   2.8551E-03   2.1207E-10   7.4277E-08
