      # Columns are: wavelength (microns), kappa ext (cm^2 g^-1),   kappa abs (cm^2 g^-1), kappa sca (cm^2 g^-1), albedo
 # Note that the opacities are per gram of gas
   1.0000E-01   4.7303E+01   2.0078E+01   2.7226E+01   5.7556E-01
   1.0474E-01   4.7476E+01   2.0333E+01   2.7143E+01   5.7173E-01
   1.0970E-01   4.7528E+01   2.0804E+01   2.6724E+01   5.6228E-01
   1.1490E-01   4.7661E+01   2.1055E+01   2.6606E+01   5.5823E-01
   1.2034E-01   4.7830E+01   2.1245E+01   2.6584E+01   5.5581E-01
   1.2604E-01   4.7957E+01   2.1598E+01   2.6359E+01   5.4964E-01
   1.3201E-01   4.8133E+01   2.1769E+01   2.6364E+01   5.4773E-01
   1.3826E-01   4.8290E+01   2.2042E+01   2.6248E+01   5.4355E-01
   1.4481E-01   4.8633E+01   2.1481E+01   2.7152E+01   5.5830E-01
   1.5167E-01   4.8710E+01   2.1807E+01   2.6902E+01   5.5230E-01
   1.5886E-01   4.8994E+01   2.2453E+01   2.6541E+01   5.4172E-01
   1.6638E-01   4.9117E+01   2.2856E+01   2.6261E+01   5.3467E-01
   1.7426E-01   4.9078E+01   2.2955E+01   2.6123E+01   5.3227E-01
   1.8252E-01   4.9031E+01   2.2608E+01   2.6423E+01   5.3890E-01
   1.9116E-01   4.9200E+01   2.1604E+01   2.7596E+01   5.6089E-01
   2.0022E-01   4.9773E+01   2.0304E+01   2.9470E+01   5.9208E-01
   2.0970E-01   5.0856E+01   1.8800E+01   3.2056E+01   6.3034E-01
   2.1964E-01   5.2349E+01   1.7042E+01   3.5307E+01   6.7445E-01
   2.3004E-01   5.3833E+01   1.5907E+01   3.7926E+01   7.0452E-01
   2.4094E-01   5.4998E+01   1.5721E+01   3.9277E+01   7.1416E-01
   2.5235E-01   5.6091E+01   1.5743E+01   4.0349E+01   7.1934E-01
   2.6431E-01   5.7188E+01   1.5564E+01   4.1625E+01   7.2785E-01
   2.7683E-01   5.8064E+01   1.5388E+01   4.2676E+01   7.3498E-01
   2.8994E-01   5.8608E+01   1.5189E+01   4.3419E+01   7.4083E-01
   3.0368E-01   5.8905E+01   1.4972E+01   4.3933E+01   7.4583E-01
   3.1806E-01   5.9064E+01   1.4743E+01   4.4321E+01   7.5039E-01
   3.3313E-01   5.9147E+01   1.4513E+01   4.4634E+01   7.5463E-01
   3.4891E-01   5.9163E+01   1.4287E+01   4.4876E+01   7.5852E-01
   3.6544E-01   5.9082E+01   1.4062E+01   4.5020E+01   7.6199E-01
   3.8275E-01   5.8856E+01   1.3843E+01   4.5013E+01   7.6479E-01
   4.0088E-01   5.8461E+01   1.3618E+01   4.4843E+01   7.6706E-01
   4.1987E-01   5.7907E+01   1.3378E+01   4.4528E+01   7.6897E-01
   4.3976E-01   5.7217E+01   1.3127E+01   4.4089E+01   7.7057E-01
   4.6059E-01   5.6430E+01   1.2872E+01   4.3558E+01   7.7189E-01
   4.8241E-01   5.5571E+01   1.2613E+01   4.2958E+01   7.7303E-01
   5.0526E-01   5.4663E+01   1.2351E+01   4.2312E+01   7.7405E-01
   5.2920E-01   5.3712E+01   1.2091E+01   4.1621E+01   7.7490E-01
   5.5427E-01   5.2726E+01   1.1830E+01   4.0896E+01   7.7563E-01
   5.8052E-01   5.1718E+01   1.1572E+01   4.0146E+01   7.7626E-01
   6.0802E-01   5.0692E+01   1.1316E+01   3.9375E+01   7.7676E-01
   6.3683E-01   4.9650E+01   1.1064E+01   3.8586E+01   7.7717E-01
   6.6699E-01   4.8602E+01   1.0814E+01   3.7788E+01   7.7751E-01
   6.9859E-01   4.7558E+01   1.0571E+01   3.6987E+01   7.7773E-01
   7.3168E-01   4.6507E+01   1.0330E+01   3.6178E+01   7.7789E-01
   7.6634E-01   4.5461E+01   1.0093E+01   3.5368E+01   7.7798E-01
   8.0264E-01   4.4420E+01   9.8577E+00   3.4562E+01   7.7808E-01
   8.4067E-01   4.3389E+01   9.6254E+00   3.3763E+01   7.7816E-01
   8.8049E-01   4.2367E+01   9.3961E+00   3.2971E+01   7.7822E-01
   9.2220E-01   4.1363E+01   9.1687E+00   3.2194E+01   7.7833E-01
   9.6588E-01   4.0371E+01   8.9445E+00   3.1426E+01   7.7844E-01
   1.0116E+00   3.9396E+01   8.7252E+00   3.0671E+01   7.7853E-01
   1.0596E+00   3.8433E+01   8.5105E+00   2.9922E+01   7.7856E-01
   1.1098E+00   3.7486E+01   8.3003E+00   2.9185E+01   7.7857E-01
   1.1623E+00   3.6552E+01   8.0917E+00   2.8460E+01   7.7862E-01
   1.2174E+00   3.5633E+01   7.8887E+00   2.7744E+01   7.7861E-01
   1.2751E+00   3.4733E+01   7.6919E+00   2.7041E+01   7.7854E-01
   1.3355E+00   3.3851E+01   7.5077E+00   2.6343E+01   7.7821E-01
   1.3987E+00   3.2986E+01   7.3276E+00   2.5659E+01   7.7786E-01
   1.4650E+00   3.2139E+01   7.1485E+00   2.4990E+01   7.7757E-01
   1.5344E+00   3.1306E+01   6.9742E+00   2.4332E+01   7.7722E-01
   1.6071E+00   3.0491E+01   6.7998E+00   2.3691E+01   7.7699E-01
   1.6832E+00   2.9693E+01   6.6296E+00   2.3063E+01   7.7673E-01
   1.7629E+00   2.8907E+01   6.4663E+00   2.2441E+01   7.7630E-01
   1.8464E+00   2.8135E+01   6.3106E+00   2.1824E+01   7.7570E-01
   1.9339E+00   2.7377E+01   6.1611E+00   2.1216E+01   7.7496E-01
   2.0255E+00   2.6635E+01   6.0155E+00   2.0620E+01   7.7415E-01
   2.1215E+00   2.5909E+01   5.8724E+00   2.0037E+01   7.7335E-01
   2.2219E+00   2.5200E+01   5.7342E+00   1.9465E+01   7.7245E-01
   2.3272E+00   2.4498E+01   5.6001E+00   1.8898E+01   7.7141E-01
   2.4374E+00   2.3810E+01   5.4673E+00   1.8342E+01   7.7038E-01
   2.5529E+00   2.3137E+01   5.3387E+00   1.7798E+01   7.6925E-01
   2.6738E+00   2.2473E+01   5.2150E+00   1.7258E+01   7.6795E-01
   2.8005E+00   2.1817E+01   5.0946E+00   1.6723E+01   7.6649E-01
   2.9332E+00   2.1173E+01   4.9771E+00   1.6196E+01   7.6493E-01
   3.0721E+00   2.0543E+01   4.8627E+00   1.5681E+01   7.6330E-01
   3.2176E+00   1.9926E+01   4.7594E+00   1.5166E+01   7.6114E-01
   3.3701E+00   1.9314E+01   4.6546E+00   1.4660E+01   7.5901E-01
   3.5297E+00   1.8709E+01   4.5396E+00   1.4170E+01   7.5736E-01
   3.6969E+00   1.8111E+01   4.4231E+00   1.3688E+01   7.5578E-01
   3.8720E+00   1.7520E+01   4.3067E+00   1.3213E+01   7.5418E-01
   4.0555E+00   1.6934E+01   4.1915E+00   1.2742E+01   7.5248E-01
   4.2476E+00   1.6347E+01   4.0696E+00   1.2277E+01   7.5104E-01
   4.4488E+00   1.5753E+01   3.9461E+00   1.1807E+01   7.4950E-01
   4.6595E+00   1.5155E+01   3.8307E+00   1.1324E+01   7.4723E-01
   4.8803E+00   1.4559E+01   3.7226E+00   1.0837E+01   7.4432E-01
   5.1114E+00   1.3966E+01   3.6250E+00   1.0341E+01   7.4044E-01
   5.3536E+00   1.3365E+01   3.5426E+00   9.8219E+00   7.3492E-01
   5.6072E+00   1.2746E+01   3.4740E+00   9.2716E+00   7.2743E-01
   5.8728E+00   1.2098E+01   3.4197E+00   8.6785E+00   7.1734E-01
   6.1510E+00   1.1414E+01   3.3723E+00   8.0418E+00   7.0455E-01
   6.4424E+00   1.0691E+01   3.2942E+00   7.3966E+00   6.9186E-01
   6.7475E+00   9.8864E+00   3.1649E+00   6.7215E+00   6.7987E-01
   7.0672E+00   8.9195E+00   3.0127E+00   5.9068E+00   6.6224E-01
   7.4020E+00   7.6075E+00   3.0776E+00   4.5299E+00   5.9546E-01
   7.7526E+00   6.4514E+00   4.1041E+00   2.3473E+00   3.6384E-01
   8.1198E+00   7.8374E+00   6.3496E+00   1.4877E+00   1.8983E-01
   8.5045E+00   1.0806E+01   8.8217E+00   1.9844E+00   1.8364E-01
   8.9074E+00   1.3718E+01   1.1112E+01   2.6061E+00   1.8997E-01
   9.3293E+00   1.7472E+01   1.3886E+01   3.5855E+00   2.0522E-01
   9.7712E+00   1.8551E+01   1.4362E+01   4.1884E+00   2.2578E-01
   1.0234E+01   1.8432E+01   1.3932E+01   4.5002E+00   2.4415E-01
   1.0719E+01   1.7547E+01   1.2815E+01   4.7320E+00   2.6967E-01
   1.1227E+01   1.6300E+01   1.1585E+01   4.7155E+00   2.8929E-01
   1.1758E+01   1.5190E+01   1.0532E+01   4.6586E+00   3.0668E-01
   1.2316E+01   1.4018E+01   9.4545E+00   4.5631E+00   3.2553E-01
   1.2899E+01   1.2882E+01   8.4542E+00   4.4282E+00   3.4374E-01
   1.3510E+01   1.1759E+01   7.5253E+00   4.2342E+00   3.6006E-01
   1.4150E+01   1.0678E+01   6.8195E+00   3.8588E+00   3.6137E-01
   1.4820E+01   1.0144E+01   6.8131E+00   3.3313E+00   3.2839E-01
   1.5522E+01   1.0063E+01   7.1317E+00   2.9312E+00   2.9129E-01
   1.6258E+01   1.0308E+01   7.6163E+00   2.6917E+00   2.6113E-01
   1.7028E+01   1.0775E+01   8.1496E+00   2.6249E+00   2.4362E-01
   1.7834E+01   1.1246E+01   8.5598E+00   2.6863E+00   2.3886E-01
   1.8679E+01   1.1495E+01   8.6874E+00   2.8073E+00   2.4423E-01
   1.9564E+01   1.1377E+01   8.4689E+00   2.9079E+00   2.5560E-01
   2.0491E+01   1.0958E+01   8.0230E+00   2.9353E+00   2.6786E-01
   2.1461E+01   1.0518E+01   7.6093E+00   2.9084E+00   2.7652E-01
   2.2478E+01   1.0069E+01   7.2059E+00   2.8627E+00   2.8432E-01
   2.3543E+01   9.6142E+00   6.8222E+00   2.7920E+00   2.9040E-01
   2.4658E+01   9.1817E+00   6.4635E+00   2.7182E+00   2.9605E-01
   2.5826E+01   8.7469E+00   6.1116E+00   2.6353E+00   3.0128E-01
   2.7050E+01   8.3233E+00   5.7783E+00   2.5451E+00   3.0578E-01
   2.8331E+01   7.9190E+00   5.4644E+00   2.4545E+00   3.0996E-01
   2.9673E+01   7.5306E+00   5.1692E+00   2.3615E+00   3.1358E-01
   3.1079E+01   7.1455E+00   4.8804E+00   2.2651E+00   3.1700E-01
   3.2551E+01   6.7728E+00   4.6066E+00   2.1662E+00   3.1984E-01
   3.4093E+01   6.4125E+00   4.3468E+00   2.0657E+00   3.2214E-01
   3.5708E+01   6.0661E+00   4.1014E+00   1.9646E+00   3.2387E-01
   3.7399E+01   5.7323E+00   3.8683E+00   1.8640E+00   3.2517E-01
   3.9171E+01   5.4084E+00   3.6400E+00   1.7684E+00   3.2697E-01
   4.1027E+01   5.0952E+00   3.4202E+00   1.6750E+00   3.2874E-01
   4.2970E+01   4.7867E+00   3.2051E+00   1.5817E+00   3.3043E-01
   4.5006E+01   4.4843E+00   2.9968E+00   1.4875E+00   3.3171E-01
   4.7138E+01   4.1875E+00   2.7950E+00   1.3925E+00   3.3254E-01
   4.9370E+01   3.8944E+00   2.5994E+00   1.2950E+00   3.3252E-01
   5.1709E+01   3.6032E+00   2.4087E+00   1.1945E+00   3.3151E-01
   5.4159E+01   3.3125E+00   2.2221E+00   1.0904E+00   3.2918E-01
   5.6724E+01   3.0224E+00   2.0393E+00   9.8308E-01   3.2527E-01
   5.9411E+01   2.7335E+00   1.8602E+00   8.7334E-01   3.1949E-01
   6.2226E+01   2.4482E+00   1.6849E+00   7.6329E-01   3.1178E-01
   6.5173E+01   2.1698E+00   1.5135E+00   6.5625E-01   3.0245E-01
   6.8261E+01   1.9019E+00   1.3468E+00   5.5502E-01   2.9183E-01
   7.1494E+01   1.6492E+00   1.1861E+00   4.6305E-01   2.8078E-01
   7.4881E+01   1.4162E+00   1.0346E+00   3.8161E-01   2.6946E-01
   7.8428E+01   1.2075E+00   8.9568E-01   3.1185E-01   2.5825E-01
   8.2143E+01   1.0258E+00   7.7221E-01   2.5356E-01   2.4719E-01
   8.6035E+01   8.7137E-01   6.6557E-01   2.0580E-01   2.3618E-01
   9.0110E+01   7.4209E-01   5.7505E-01   1.6704E-01   2.2509E-01
   9.4379E+01   6.3462E-01   4.9896E-01   1.3566E-01   2.1376E-01
   9.8850E+01   5.4520E-01   4.3487E-01   1.1033E-01   2.0237E-01
   1.0353E+02   4.7070E-01   3.8085E-01   8.9843E-02   1.9087E-01
   1.0844E+02   4.0820E-01   3.3487E-01   7.3323E-02   1.7963E-01
   1.1357E+02   3.5554E-01   2.9563E-01   5.9906E-02   1.6850E-01
   1.1895E+02   3.1106E-01   2.6205E-01   4.9010E-02   1.5756E-01
   1.2459E+02   2.7314E-01   2.3299E-01   4.0146E-02   1.4698E-01
   1.3049E+02   2.4044E-01   2.0751E-01   3.2932E-02   1.3697E-01
   1.3667E+02   2.1242E-01   1.8537E-01   2.7048E-02   1.2733E-01
   1.4315E+02   1.8812E-01   1.6588E-01   2.2236E-02   1.1820E-01
   1.4993E+02   1.6697E-01   1.4867E-01   1.8299E-02   1.0960E-01
   1.5703E+02   1.4868E-01   1.3361E-01   1.5070E-02   1.0136E-01
   1.6447E+02   1.3261E-01   1.2019E-01   1.2422E-02   9.3673E-02
   1.7226E+02   1.1845E-01   1.0821E-01   1.0247E-02   8.6507E-02
   1.8042E+02   1.0608E-01   9.7624E-02   8.4570E-03   7.9722E-02
   1.8897E+02   9.5125E-02   8.8141E-02   6.9843E-03   7.3422E-02
   1.9792E+02   8.5379E-02   7.9607E-02   5.7716E-03   6.7599E-02
   2.0729E+02   7.6748E-02   7.1976E-02   4.7721E-03   6.2178E-02
   2.1711E+02   6.9104E-02   6.5156E-02   3.9476E-03   5.7126E-02
   2.2740E+02   6.2262E-02   5.8995E-02   3.2668E-03   5.2469E-02
   2.3817E+02   5.6145E-02   5.3441E-02   2.7043E-03   4.8166E-02
   2.4945E+02   5.0686E-02   4.8446E-02   2.2397E-03   4.4187E-02
   2.6127E+02   4.5798E-02   4.3943E-02   1.8552E-03   4.0508E-02
   2.7364E+02   4.1413E-02   3.9876E-02   1.5372E-03   3.7118E-02
   2.8661E+02   3.7481E-02   3.6207E-02   1.2738E-03   3.3986E-02
   3.0018E+02   3.3944E-02   3.2888E-02   1.0559E-03   3.1107E-02
   3.1440E+02   3.0748E-02   2.9873E-02   8.7559E-04   2.8476E-02
   3.2930E+02   2.7867E-02   2.7140E-02   7.2623E-04   2.6061E-02
   3.4490E+02   2.5273E-02   2.4671E-02   6.0238E-04   2.3835E-02
   3.6123E+02   2.2944E-02   2.2444E-02   4.9973E-04   2.1780E-02
   3.7835E+02   2.0821E-02   2.0406E-02   4.1465E-04   1.9915E-02
   3.9627E+02   1.8907E-02   1.8563E-02   3.4409E-04   1.8200E-02
   4.1504E+02   1.7182E-02   1.6897E-02   2.8555E-04   1.6619E-02
   4.3470E+02   1.5605E-02   1.5368E-02   2.3706E-04   1.5191E-02
   4.5529E+02   1.4190E-02   1.3994E-02   1.9677E-04   1.3866E-02
   4.7686E+02   1.2897E-02   1.2734E-02   1.6339E-04   1.2669E-02
   4.9945E+02   1.1727E-02   1.1591E-02   1.3565E-04   1.1567E-02
   5.2311E+02   1.0670E-02   1.0557E-02   1.1262E-04   1.0556E-02
   5.4789E+02   9.7083E-03   9.6148E-03   9.3517E-05   9.6326E-03
   5.7384E+02   8.8291E-03   8.7514E-03   7.7678E-05   8.7980E-03
   6.0103E+02   8.0366E-03   7.9721E-03   6.4508E-05   8.0268E-03
   6.2950E+02   7.3155E-03   7.2619E-03   5.3574E-05   7.3233E-03
   6.5932E+02   6.6601E-03   6.6156E-03   4.4495E-05   6.6809E-03
   6.9055E+02   6.0642E-03   6.0272E-03   3.6957E-05   6.0944E-03
   7.2326E+02   5.5220E-03   5.4913E-03   3.0697E-05   5.5591E-03
   7.5752E+02   5.0289E-03   5.0034E-03   2.5499E-05   5.0704E-03
   7.9341E+02   4.5803E-03   4.5591E-03   2.1181E-05   4.6245E-03
   8.3099E+02   4.1697E-03   4.1521E-03   1.7600E-05   4.2209E-03
   8.7036E+02   3.7978E-03   3.7831E-03   1.4621E-05   3.8500E-03
   9.1159E+02   3.4597E-03   3.4476E-03   1.2147E-05   3.5109E-03
   9.5477E+02   3.1519E-03   3.1418E-03   1.0091E-05   3.2017E-03
   1.0000E+03   2.8715E-03   2.8631E-03   8.3839E-06   2.9197E-03
